time,Forca (N),Deslocamento (mm)
62758,0.7460840000000001,0.0
62768,1.1191520000000001,0.0
62778,1.3471380000000002,0.0
62788,1.5129460000000001,0.0
62798,1.637302,0.0
62808,1.7202060000000001,0.0
62818,1.792747,0.0
62828,1.844562,0.0
62838,1.8963770000000002,0.0
62848,1.9378290000000002,0.0
62858,1.9585550000000003,0.0
62868,1.989644,0.0
62878,2.020733,0.0
62888,2.0414589999999997,0.0
62898,2.051822,0.0
62908,2.072548,0.0
62918,2.093274,0.0
62928,2.103637,0.0
62938,2.114,0.0
62948,2.124363,0.0
62958,2.1347259999999997,0.0
62968,2.1450889999999996,0.0
62978,2.1450889999999996,0.0
62988,2.155452,0.0
62998,2.155452,0.0
63008,2.155452,0.0
63018,2.165815,0.0
63028,2.165815,0.0
63038,2.1761779999999997,0.0
63048,2.1761779999999997,0.0
63058,2.1761779999999997,0.0
63068,2.1761779999999997,0.0
63078,2.1865409999999996,0.0
63088,2.1865409999999996,0.0
63098,2.196904,0.0
63108,2.196904,0.0
63118,2.207267,0.0
63128,2.207267,0.0
63138,2.207267,0.0
63148,2.207267,0.0
63158,2.207267,0.0
63168,2.207267,0.0
63178,2.2176299999999998,0.0
63188,2.2176299999999998,0.0
63198,2.2176299999999998,0.0
63208,2.2176299999999998,0.0
63218,2.2176299999999998,0.0
63228,2.2279929999999997,0.0
63238,2.2279929999999997,0.0
63248,2.2279929999999997,0.0
63258,2.2279929999999997,0.0
63268,2.2279929999999997,0.0
63278,2.2279929999999997,0.0
63288,2.2279929999999997,0.0
63298,2.238356,0.0
63308,2.238356,0.0
63318,2.238356,0.0
63328,2.238356,0.0
63338,2.238356,0.0
63348,2.238356,0.0
63358,2.238356,0.0
63368,2.248719,0.0
63378,2.248719,0.0
63388,2.248719,0.0
63398,2.248719,0.0
63408,2.248719,0.0
63418,2.248719,0.0
63428,2.248719,0.0
63438,2.248719,0.0
63448,2.248719,0.0
63458,2.248719,0.0
63468,2.248719,0.0
63478,2.248719,0.0
63488,2.248719,0.0
63498,2.248719,0.0
63508,2.248719,0.0
63518,2.248719,0.0
63528,2.248719,0.0
63538,2.248719,0.0
63548,2.248719,0.0
63558,2.248719,0.0
63568,2.248719,0.0
63578,2.248719,0.0
63588,2.248719,0.0
63598,2.259082,0.0
63608,2.259082,0.0
63618,2.259082,0.0
63628,2.259082,0.0
63638,2.259082,0.0
63648,2.259082,0.0
63658,2.259082,0.0
63668,2.259082,0.0
63678,2.259082,0.0
63688,2.259082,0.0
63698,2.259082,0.0
63708,2.259082,0.0
63718,2.248719,0.0
63728,2.248719,0.0
63738,2.248719,0.0
63748,2.248719,0.0
63758,2.248719,0.0
63768,2.248719,0.0
63778,2.248719,0.0
63788,2.238356,0.0
63798,2.238356,0.0
63808,2.238356,0.0
63818,2.238356,0.0
63828,2.238356,0.0
63838,2.238356,0.0
63848,2.238356,0.0
63858,2.238356,0.0
63868,2.248719,0.0
63878,2.248719,0.0
63888,2.248719,0.0
63898,2.248719,0.0
63908,2.248719,0.0
63918,2.248719,0.0
63928,2.248719,0.0
63938,2.248719,0.0
63948,2.248719,0.0
63958,2.248719,0.0
63968,2.248719,0.0
63978,2.248719,0.0
63988,2.248719,0.0
63998,2.248719,0.0
64008,2.248719,0.0
64018,2.248719,0.0
64028,2.248719,0.0
64038,2.248719,0.0
64048,2.248719,0.0
64058,2.248719,0.0
64068,2.248719,0.0
64078,2.248719,0.0
64088,2.248719,0.0
64098,2.248719,0.0
64108,2.248719,0.0
64118,2.248719,0.0
64128,2.248719,0.0
64138,2.248719,0.0
64148,2.248719,0.0
64158,2.248719,0.0
64168,2.248719,0.0
64178,2.238356,0.0
64188,2.238356,0.0
64198,2.238356,0.0
64208,2.238356,0.0
64218,2.238356,0.0
64228,2.238356,0.0
64238,2.238356,0.0
64248,2.238356,0.0
64258,2.238356,0.0
64268,2.238356,0.0
64278,2.238356,0.0
64288,2.238356,0.0
64298,2.238356,0.0
64308,2.248719,0.0
64318,2.238356,0.0
64328,2.238356,0.0
64338,2.238356,0.0
64348,2.248719,0.0
64358,2.248719,0.0
64368,2.248719,0.0
64378,2.248719,0.0
64388,2.248719,0.0
64398,2.248719,0.0
64408,2.248719,0.0
64418,2.248719,0.0
64428,2.238356,0.0
64438,2.238356,0.0
64448,2.238356,0.0
64458,2.238356,0.0
64468,2.238356,0.0
64478,2.238356,0.0
64488,2.238356,0.0
64498,2.238356,0.0
64508,2.238356,0.0
64518,2.248719,0.0
64528,2.248719,0.0
64538,2.248719,0.0
64548,2.248719,0.0
64558,2.248719,0.0
64568,2.248719,0.0
64578,2.248719,0.0
64588,2.248719,0.0
64598,2.248719,0.0
64608,2.248719,0.0
64618,2.248719,0.0
64628,2.238356,0.0
64638,2.238356,0.0
64648,2.238356,0.0
64658,2.238356,0.0
64668,2.238356,0.0
64678,2.238356,0.0
64688,2.238356,0.0
64698,2.238356,0.0
64708,2.238356,0.0
64718,2.238356,0.0
64728,2.238356,0.0
64738,2.238356,0.0
64748,2.238356,0.0
64758,2.238356,0.0
64768,2.238356,0.0
64778,2.238356,0.0
64788,2.238356,0.0
64798,2.238356,0.0
64808,2.238356,0.0
64818,2.238356,0.0
64828,2.238356,0.0
64838,2.238356,0.0
64848,2.238356,0.0
64858,2.238356,0.0
64868,2.238356,0.0
64878,2.238356,0.0
64888,2.238356,0.0
64898,2.238356,0.0
64908,2.238356,0.0
64918,2.238356,0.0
64928,2.238356,0.0
64938,2.238356,0.0
64948,2.238356,0.0
64958,2.238356,0.0
64968,2.238356,0.0
64978,2.238356,0.0
64988,2.238356,0.0
64998,2.238356,0.0
65008,2.238356,0.0
65018,2.238356,0.0
65028,2.238356,0.0
65038,2.238356,0.0
65048,2.238356,0.0
65058,2.238356,0.0
65068,2.238356,0.0
65078,2.238356,0.0
65088,2.238356,0.0
65098,2.238356,0.0
65108,2.238356,0.0
65118,2.238356,0.0
65128,2.238356,0.0
65138,2.238356,0.0
65148,2.238356,0.0
65158,2.238356,0.0
65168,2.238356,0.0
65178,2.238356,0.0
65188,2.238356,0.0
65198,2.238356,0.0
65208,2.238356,0.0
65218,2.238356,0.0
65228,2.238356,0.0
65238,2.238356,0.0
65248,2.238356,0.0
65258,2.248719,0.0
65268,2.248719,0.0
65278,2.248719,0.0
65288,2.248719,0.0
65298,2.248719,0.0
65308,2.238356,0.0
65318,2.238356,0.0
65328,2.238356,0.0
65338,2.238356,0.0
65348,2.238356,0.0
65358,2.238356,0.0
65368,2.238356,0.0
65378,2.238356,0.0
65388,2.238356,0.0
65398,2.238356,0.0
65408,2.238356,0.0
65418,2.238356,0.0
65428,2.238356,0.0
65438,2.238356,0.0
65448,2.238356,0.0
65458,2.238356,0.0
65468,2.238356,0.0
65478,2.238356,0.0
65488,2.238356,0.0
65498,2.238356,0.0
65508,2.238356,0.0
65518,2.238356,0.0
65528,2.238356,0.0
65538,2.238356,0.0
65548,2.238356,0.0
65558,2.238356,0.0
65568,2.2279929999999997,0.0
65578,2.2279929999999997,0.0
65588,2.238356,0.0
65598,2.238356,0.0
65608,2.238356,0.0
65618,2.238356,0.0
65628,2.238356,0.0
65638,2.238356,0.0
65648,2.238356,0.0
65658,2.238356,0.0
65668,2.238356,0.0
65678,2.238356,0.0
65688,2.238356,0.0
65698,2.2279929999999997,0.0
65708,2.2279929999999997,0.0
65718,2.2279929999999997,0.0
65728,2.2279929999999997,0.0
65738,2.238356,0.0
65748,2.238356,0.0
65758,2.238356,0.0
65768,2.238356,0.0
65778,2.238356,0.0
65788,2.238356,0.0
65798,2.238356,0.0
65808,2.238356,0.0
65818,2.238356,0.0
65828,2.238356,0.0
65838,2.238356,0.0
65848,2.238356,0.0
65858,2.238356,0.0
65868,2.238356,0.0
65878,2.2279929999999997,0.0
65888,2.238356,0.0
65898,2.238356,0.0
65908,2.238356,0.0
65918,2.238356,0.0
65928,2.238356,0.0
65938,2.238356,0.0
65948,2.238356,0.0
65958,2.238356,0.0
65968,2.238356,0.0
65978,2.238356,0.0
65988,2.238356,0.0
65998,2.238356,0.0
66008,2.238356,0.0
66018,2.238356,0.0
66028,2.238356,0.0
66038,2.238356,0.0
66048,2.238356,0.0
66058,2.238356,0.0
66068,2.238356,0.0
66078,2.238356,0.0
66088,2.238356,0.0
66098,2.238356,0.0
66108,2.2279929999999997,0.0
66118,2.238356,0.0
66128,2.238356,0.0
66138,2.2279929999999997,0.0
66148,2.2279929999999997,0.0
66158,2.2279929999999997,0.0
66168,2.2279929999999997,0.0
66178,2.2279929999999997,0.0
66188,2.2279929999999997,0.0
66198,2.2279929999999997,0.0
66208,2.2279929999999997,0.0
66218,2.238356,0.0
66228,2.2279929999999997,0.0
66238,2.238356,0.0
66248,2.238356,0.0
66258,2.238356,0.0
66268,2.238356,0.0
66278,2.238356,0.0
66288,2.238356,0.0
66298,2.238356,0.0
66308,2.2279929999999997,0.0
66318,2.2279929999999997,0.0
66328,2.2279929999999997,0.0
66338,2.238356,0.0
66348,2.238356,0.0
66358,2.238356,0.0
66368,2.238356,0.0
66378,2.238356,0.0
66388,2.238356,0.0
66398,2.238356,0.0
66408,2.238356,0.0
66418,2.238356,0.0
66428,2.238356,0.0
66438,2.238356,0.0
66448,2.238356,0.0
66458,2.238356,0.0
66468,2.238356,0.0
66478,2.238356,0.0
66488,2.238356,0.0
66498,2.248719,0.0
66508,2.248719,0.0
66518,2.248719,0.0
66528,2.248719,0.0
66538,2.248719,0.0
66548,2.248719,0.0
66558,2.248719,0.0
66568,2.248719,0.0
66578,2.248719,0.0
66588,2.248719,0.0
66598,2.248719,0.0
66608,2.248719,0.0
66618,2.248719,0.0
66628,2.248719,0.0
66638,2.248719,0.0
66648,2.248719,0.0
66658,2.238356,0.0
66668,2.238356,0.0
66678,2.238356,0.0
66688,2.238356,0.0
66698,2.238356,0.0
66708,2.238356,0.0
66718,2.238356,0.0
66728,2.238356,0.0
66738,2.238356,0.0
66748,2.238356,0.0
66758,2.238356,0.0
66768,2.238356,0.0
66778,2.238356,0.0
66788,2.238356,0.0
66798,2.238356,0.0
66808,2.238356,0.0
66818,2.238356,0.0
66828,2.238356,0.0
66838,2.238356,0.0
66848,2.238356,0.0
66858,2.238356,0.0
66868,2.238356,0.0
66878,2.238356,0.0
66888,2.238356,0.0
66898,2.238356,0.0
66908,2.238356,0.0
66918,2.238356,0.0
66928,2.238356,0.0
66938,2.238356,0.0
66948,2.238356,0.0
66958,2.238356,0.0
66968,2.238356,0.0
66978,2.238356,0.0
66988,2.238356,0.0
66998,2.238356,0.0
67008,2.248719,0.0
67018,2.248719,0.0
67028,2.248719,0.0
67038,2.248719,0.0
67048,2.248719,0.0
67058,2.248719,0.0
67068,2.248719,0.0
67078,2.248719,0.0
67088,2.248719,0.0
67098,2.248719,0.0
67108,2.248719,0.0
67118,2.248719,0.0
67128,2.248719,0.0
67138,2.248719,0.0
67148,2.248719,0.0
67158,2.248719,0.0
67168,2.248719,0.0
67178,2.248719,0.0
67188,2.248719,0.0
67198,2.248719,0.0
67208,2.248719,0.0
67218,2.248719,0.0
67228,2.248719,0.0
67238,2.248719,0.0
67248,2.248719,0.0
67258,2.248719,0.0
67268,2.248719,0.0
67278,2.248719,0.0
67288,2.248719,0.0
67298,2.248719,0.0
67308,2.248719,0.0
67318,2.248719,0.0
67328,2.248719,0.0
67338,2.248719,0.0
67348,2.248719,0.0
67358,2.248719,0.0
67368,2.248719,0.0
67378,2.248719,0.0
67388,2.248719,0.0
67398,2.248719,0.0
67408,2.248719,0.0
67418,2.248719,0.0
67428,2.248719,0.0
67438,2.248719,0.0
67448,2.248719,0.0
67458,2.248719,0.0
67468,2.248719,0.0
67478,2.248719,0.0
67488,2.248719,0.0
67498,2.248719,0.0
67508,2.248719,0.0
67518,2.248719,0.0
67528,2.248719,0.0
67538,2.259082,0.0
67548,2.259082,0.0
67558,2.259082,0.0
67568,2.259082,0.0
67578,2.259082,0.0
67588,2.259082,0.0
67598,2.259082,0.0
67608,2.259082,0.0
67618,2.259082,0.0
67628,2.259082,0.0
67638,2.259082,0.0
67648,2.259082,0.0
67658,2.259082,0.0
67668,2.259082,0.0
67678,2.259082,0.0
67688,2.259082,0.0
67698,2.259082,0.0
67708,2.248719,0.0
67718,2.248719,0.0
67728,2.248719,0.0
67738,2.248719,0.0
67748,2.248719,0.0
67758,2.248719,0.0
67768,2.248719,0.0
67778,2.248719,0.0
67788,2.248719,0.0
67798,2.248719,0.0
67808,2.248719,0.0
67818,2.248719,0.0
67828,2.248719,0.0
67838,2.248719,0.0
67848,2.248719,0.0
67858,2.248719,0.0
67868,2.248719,0.0
67878,2.248719,0.0
67888,2.248719,0.0
67898,2.248719,0.0
67908,2.248719,0.0
67918,2.248719,0.0
67928,2.248719,0.0
67938,2.248719,0.0
67948,2.248719,0.0
67958,2.248719,0.0
67968,2.248719,0.0
67978,2.248719,0.0
67988,2.248719,0.0
67998,2.248719,0.0
68008,2.248719,0.0
68018,2.248719,0.0
68028,2.248719,0.0
68038,2.248719,0.0
68048,2.248719,0.0
68058,2.248719,0.0
68068,2.248719,0.0
68078,2.248719,0.0
68088,2.248719,0.0
68098,2.248719,0.0
68108,2.248719,0.0
68118,2.248719,0.0
68128,2.248719,0.0
68138,2.248719,0.0
68148,2.248719,0.0
68158,2.248719,0.0
68168,2.248719,0.0
68178,2.238356,0.0
68188,2.238356,0.0
68198,2.238356,0.0
68208,2.238356,0.0
68218,2.238356,0.0
68228,2.238356,0.0
68238,2.248719,0.0
68248,2.248719,0.0
68258,2.248719,0.0
68268,2.248719,0.0
68278,2.248719,0.0
68288,2.248719,0.0
68298,2.248719,0.0
68308,2.248719,0.0
68318,2.248719,0.0
68328,2.248719,0.0
68338,2.248719,0.0
68348,2.248719,0.0
68358,2.248719,0.0
68368,2.248719,0.0
68378,2.248719,0.0
68388,2.248719,0.0
68398,2.248719,0.0
68408,2.248719,0.0
68418,2.248719,0.0
68428,2.248719,0.0
68438,2.248719,0.0
68448,2.248719,0.0
68458,2.248719,0.0
68468,2.248719,0.0
68478,2.248719,0.0
68488,2.248719,0.0
68498,2.248719,0.0
68508,2.248719,0.0
68518,2.248719,0.0
68528,2.248719,0.0
68538,2.248719,0.0
68548,2.248719,0.0
68558,2.248719,0.0
68568,2.248719,0.0
68578,2.248719,0.0
68588,2.248719,0.0
68598,2.248719,0.0
68608,2.248719,0.0
68618,2.238356,0.0
68628,2.238356,0.0
68638,2.238356,0.0
68648,2.238356,0.0
68658,2.238356,0.0
68668,2.238356,0.0
68678,2.248719,0.0
68688,2.248719,0.0
68698,2.248719,0.0
68708,2.248719,0.0
68718,2.248719,0.0
68728,2.238356,0.0
68738,2.248719,0.0
68748,2.248719,0.0
68758,2.248719,0.0
68768,2.248719,0.0
68778,2.248719,0.0
68788,2.248719,0.0
68798,2.248719,0.0
68808,2.248719,0.0
68818,2.248719,0.0
68828,2.248719,0.0
68838,2.248719,0.0
68848,2.248719,0.0
68858,2.248719,0.0
68868,2.248719,0.0
68878,2.248719,0.0
68888,2.248719,0.0
68898,2.248719,0.0
68908,2.248719,0.0
68918,2.248719,0.0
68928,2.248719,0.0
68938,2.248719,0.0
68948,2.248719,0.0
68958,2.248719,0.0
68968,2.248719,0.0
68978,2.248719,0.0
68988,2.248719,0.0
68998,2.248719,0.0
69008,2.238356,0.0
69018,2.238356,0.0
69028,2.238356,0.0
69038,2.238356,0.0
69048,2.238356,0.0
69058,2.238356,0.0
69068,2.238356,0.0
69078,2.238356,0.0
69088,2.238356,0.0
69098,2.238356,0.0
69108,2.238356,0.0
69118,2.238356,0.0
69128,2.238356,0.0
69138,2.238356,0.0
69148,2.238356,0.0
69158,2.238356,0.0
69168,2.238356,0.0
69178,2.238356,0.0
69188,2.238356,0.0
69198,2.238356,0.0
69208,2.238356,0.0
69218,2.238356,0.0
69228,2.238356,0.0
69238,2.238356,0.0
69248,2.248719,0.0
69258,2.248719,0.0
69268,2.248719,0.0
69278,2.248719,0.0
69288,2.248719,0.0
69298,2.248719,0.0
69308,2.248719,0.0
69318,2.248719,0.0
69328,2.248719,0.0
69338,2.248719,0.0
69348,2.248719,0.0
69358,2.248719,0.0
69368,2.248719,0.0
69378,2.248719,0.0
69388,2.248719,0.0
69398,2.248719,0.0
69408,2.248719,0.0
69418,2.238356,0.0
69428,2.248719,0.0
69438,2.2279929999999997,0.0
69448,2.238356,0.0
69458,2.238356,0.0
69468,2.238356,0.0
69478,2.248719,0.0
69488,2.238356,0.0
69498,2.2279929999999997,0.0
69508,2.2176299999999998,0.0
69518,2.2279929999999997,0.0
69528,2.2279929999999997,0.0
69538,2.2279929999999997,0.0
69548,2.2279929999999997,0.0
69558,2.2279929999999997,0.0
69568,2.2279929999999997,0.0
69578,2.2279929999999997,0.0
69588,2.2279929999999997,0.0
69598,2.2176299999999998,0.0
69608,2.2176299999999998,0.0
69618,2.2176299999999998,0.0
69628,2.2176299999999998,0.0
69638,2.2176299999999998,0.0
69648,2.2176299999999998,0.0
69658,2.2279929999999997,0.0
69668,2.2176299999999998,0.0
69678,2.2176299999999998,0.0
69688,2.2176299999999998,0.0
69698,2.2176299999999998,0.0
69708,2.2279929999999997,0.0
69718,2.2176299999999998,0.0
69728,2.2176299999999998,0.0
69738,2.2176299999999998,0.0
69748,2.2176299999999998,0.0
69758,2.2176299999999998,0.0
69768,2.2176299999999998,0.0
69778,2.2176299999999998,0.0
69788,2.2176299999999998,0.0
69798,2.207267,0.0
69808,2.207267,0.0
69818,2.207267,0.0
69828,2.207267,0.0
69838,2.2176299999999998,0.0
69848,2.207267,0.0
69858,2.207267,0.0
69868,2.207267,0.0
69878,2.207267,0.0
69888,2.2176299999999998,0.0
69898,2.2176299999999998,0.0
69908,2.2176299999999998,0.0
69918,2.2176299999999998,0.0
69928,2.2176299999999998,0.0
69938,2.2176299999999998,0.0
69948,2.2176299999999998,0.0
69958,2.2176299999999998,0.0
69968,2.2176299999999998,0.0
69978,2.2176299999999998,0.0
69988,2.2176299999999998,0.0
69998,2.2176299999999998,0.0
70008,2.2176299999999998,0.0
70018,2.2176299999999998,0.0
70028,2.207267,0.0
70038,2.207267,0.0
70048,2.2176299999999998,0.0
70058,2.2176299999999998,0.0
70068,2.2176299999999998,0.0
70078,2.2176299999999998,0.0
70088,2.2176299999999998,0.0
70098,2.2176299999999998,0.0
70108,2.2176299999999998,0.0
70118,2.2176299999999998,0.0
70128,2.2176299999999998,0.0
70138,2.2176299999999998,0.0
70148,2.2176299999999998,0.0
70158,2.2176299999999998,0.0
70168,2.207267,0.0
70178,2.2176299999999998,0.0
70188,2.2176299999999998,0.0
70198,2.2176299999999998,0.0
70208,2.2176299999999998,0.0
70218,2.2176299999999998,0.0
70228,2.2176299999999998,0.0
70238,2.2176299999999998,0.0
70248,2.2176299999999998,0.0
70258,2.2176299999999998,0.0
70268,2.2176299999999998,0.0
70278,2.2176299999999998,0.0
70288,2.2176299999999998,0.0
70298,2.2176299999999998,0.0
70308,2.2176299999999998,0.0
70318,2.2176299999999998,0.0
70328,2.2176299999999998,0.0
70338,2.2176299999999998,0.0
70348,2.2279929999999997,0.0
70358,2.2279929999999997,0.0
70368,2.2279929999999997,0.0
70378,2.2176299999999998,0.0
70388,2.2176299999999998,0.0
70398,2.2176299999999998,0.0
70408,2.2176299999999998,0.0
70418,2.2176299999999998,0.0
70428,2.2176299999999998,0.0
70438,2.2176299999999998,0.0
70448,2.2176299999999998,0.0
70458,2.2176299999999998,0.0
70468,2.2176299999999998,0.0
70478,2.2176299999999998,0.0
70488,2.2176299999999998,0.0
70498,2.2176299999999998,0.0
70508,2.2176299999999998,0.0
70518,2.2176299999999998,0.0
70528,2.2176299999999998,0.0
70538,2.2176299999999998,0.0
70548,2.2176299999999998,0.0
70558,2.2176299999999998,0.0
70568,2.2176299999999998,0.0
70578,2.2176299999999998,0.0
70588,2.2176299999999998,0.0
70598,2.2176299999999998,0.0
70608,2.2176299999999998,0.0
70618,2.2279929999999997,0.0
70628,2.2176299999999998,0.0
70638,2.2279929999999997,0.0
70648,2.2279929999999997,0.0
70658,2.2279929999999997,0.0
70668,2.2279929999999997,0.0
70678,2.2279929999999997,0.0
70688,2.2176299999999998,0.0
70698,2.2176299999999998,0.0
70708,2.2176299999999998,0.0
70718,2.2279929999999997,0.0
70728,2.2176299999999998,0.0
70738,2.2176299999999998,0.0
70748,2.2176299999999998,0.0
70758,2.2176299999999998,0.0
70768,2.2176299999999998,0.0
70778,2.2279929999999997,0.0
70788,2.2176299999999998,0.0
70798,2.2176299999999998,0.0
70808,2.2279929999999997,0.0
70818,2.2176299999999998,0.0
70828,2.2279929999999997,0.0
70838,2.2279929999999997,0.0
70848,2.2279929999999997,0.0
70858,2.2176299999999998,0.0
70868,2.2279929999999997,0.0
70878,2.2176299999999998,0.0
70888,2.2279929999999997,0.0
70898,2.2279929999999997,0.0
70908,2.2279929999999997,0.0
70918,2.2279929999999997,0.0
70928,2.2279929999999997,0.0
70938,2.2279929999999997,0.0
70948,2.2279929999999997,0.0
70958,2.2279929999999997,0.0
70968,2.2279929999999997,0.0
70978,2.2279929999999997,0.0
70988,2.2279929999999997,0.0
70998,2.2279929999999997,0.0
71008,2.2279929999999997,0.0
71018,2.2279929999999997,0.0
71028,2.2279929999999997,0.0
71038,2.2279929999999997,0.0
71048,2.2279929999999997,0.0
71058,2.2279929999999997,0.0
71068,2.2279929999999997,0.0
71078,2.2279929999999997,0.0
71088,2.2176299999999998,0.0
71098,2.2176299999999998,0.0
71108,2.2176299999999998,0.0
71118,2.2176299999999998,0.0
71128,2.2176299999999998,0.0
71138,2.2176299999999998,0.0
71148,2.2176299999999998,0.0
71158,2.2176299999999998,0.0
71168,2.2176299999999998,0.0
71178,2.2176299999999998,0.0
71188,2.2176299999999998,0.0
71198,2.2176299999999998,0.0
71208,2.2176299999999998,0.0
71218,2.2176299999999998,0.0
71228,2.2176299999999998,0.0
71238,2.2176299999999998,0.0
71248,2.2176299999999998,0.0
71258,2.2176299999999998,0.0
71268,2.2176299999999998,0.0
71278,2.207267,0.0
71288,2.2176299999999998,0.0
71298,2.2176299999999998,0.0
71308,2.2176299999999998,0.0
71318,2.2176299999999998,0.0
71328,2.2176299999999998,0.0
71338,2.207267,0.0
71348,2.207267,0.0
71358,2.2176299999999998,0.0
71368,2.2176299999999998,0.0
71378,2.2176299999999998,0.0
71388,2.2176299999999998,0.0
71398,2.2176299999999998,0.0
71408,2.2176299999999998,0.0
71418,2.2176299999999998,0.0
71428,2.2176299999999998,0.0
71438,2.2176299999999998,0.0
71448,2.2279929999999997,0.0
71458,2.2279929999999997,0.0
71468,2.2279929999999997,0.0
71478,2.2279929999999997,0.0
71488,2.2176299999999998,0.0
71498,2.2176299999999998,0.0
71508,2.2279929999999997,0.0
71518,2.2279929999999997,0.0
71528,2.2279929999999997,0.0
71538,2.2279929999999997,0.0
71548,2.2279929999999997,0.0
71558,2.2279929999999997,0.0
71568,2.2279929999999997,0.0
71578,2.2279929999999997,0.0
71588,2.2279929999999997,0.0
71598,2.2279929999999997,0.0
71608,2.2279929999999997,0.0
71618,2.2279929999999997,0.0
71628,2.2279929999999997,0.0
71638,2.2279929999999997,0.0
71648,2.2279929999999997,0.0
71658,2.2279929999999997,0.0
71668,2.2279929999999997,0.0
71678,2.2279929999999997,0.0
71688,2.2279929999999997,0.0
71698,2.2279929999999997,0.0
71708,2.2279929999999997,0.0
71718,2.2279929999999997,0.0
71728,2.2279929999999997,0.0
71738,2.2279929999999997,0.0
71748,2.2279929999999997,0.0
71758,2.2279929999999997,0.0
71768,2.2279929999999997,0.0
71778,2.2279929999999997,0.0
71788,2.2279929999999997,0.0
71798,2.2279929999999997,0.0
71808,2.2279929999999997,0.0
71818,2.2279929999999997,0.0
71828,2.2279929999999997,0.0
